Freq.	Vout    phase
1.00000000000000e+00	9.99998420865789e-01,-1.25663507703734e-03
1.00695555005672e+00	9.99998398821933e-01,-1.26537563732490e-03
1.01395947979003e+00	9.99998376470356e-01,-1.27417699243096e-03
1.02101212570719e+00	9.99998353806764e-01,-1.28303956520460e-03
1.02811382665607e+00	9.99998330826801e-01,-1.29196378143580e-03
1.03526492384138e+00	9.99998307526051e-01,-1.30095006987588e-03
1.04246576084112e+00	9.99998283900036e-01,-1.30999886225809e-03
1.04971668362307e+00	9.99998259944215e-01,-1.31911059331834e-03
1.05701804056138e+00	9.99998235653984e-01,-1.32828570081609e-03
1.06437018245336e+00	9.99998211024676e-01,-1.33752462555537e-03
1.07177346253629e+00	9.99998186051556e-01,-1.34682781140596e-03
1.07922823650443e+00	9.99998160729826e-01,-1.35619570532469e-03
1.08673486252606e+00	9.99998135054619e-01,-1.36562875737692e-03
1.09429370126074e+00	9.99998109021001e-01,-1.37512742075814e-03
1.10190511587661e+00	9.99998082623968e-01,-1.38469215181576e-03
1.10956947206785e+00	9.99998055858448e-01,-1.39432341007099e-03
1.11728713807222e+00	9.99998028719297e-01,-1.40402165824096e-03
1.12505848468881e+00	9.99998001201299e-01,-1.41378736226090e-03
1.13288388529580e+00	9.99997973299166e-01,-1.42362099130652e-03
1.14076371586843e+00	9.99997945007534e-01,-1.43352301781656e-03
1.14869835499704e+00	9.99997916320968e-01,-1.44349391751547e-03
1.15668818390529e+00	9.99997887233954e-01,-1.45353416943626e-03
1.16473358646846e+00	9.99997857740903e-01,-1.46364425594350e-03
1.17283494923188e+00	9.99997827836145e-01,-1.47382466275648e-03
1.18099266142953e+00	9.99997797513935e-01,-1.48407587897255e-03
1.18920711500272e+00	9.99997766768444e-01,-1.49439839709060e-03
1.19747870461893e+00	9.99997735593763e-01,-1.50479271303470e-03
1.20580782769076e+00	9.99997703983903e-01,-1.51525932617795e-03
1.21419488439505e+00	9.99997671932787e-01,-1.52579873936643e-03
1.22264027769207e+00	9.99997639434257e-01,-1.53641145894334e-03
1.23114441334492e+00	9.99997606482066e-01,-1.54709799477334e-03
1.23970769993899e+00	9.99997573069881e-01,-1.55785886026705e-03
1.24833054890161e+00	9.99997539191283e-01,-1.56869457240563e-03
1.25701337452183e+00	9.99997504839759e-01,-1.57960565176571e-03
1.26575659397028e+00	9.99997470008708e-01,-1.59059262254429e-03
1.27456062731927e+00	9.99997434691436e-01,-1.60165601258398e-03
1.28342589756291e+00	9.99997398881157e-01,-1.61279635339831e-03
1.29235283063750e+00	9.99997362570987e-01,-1.62401418019728e-03
1.30134185544194e+00	9.99997325753948e-01,-1.63531003191303e-03
1.31039340385837e+00	9.99997288422966e-01,-1.64668445122574e-03
1.31950791077290e+00	9.99997250570865e-01,-1.65813798458968e-03
1.32868581409652e+00	9.99997212190371e-01,-1.66967118225946e-03
1.33792755478612e+00	9.99997173274109e-01,-1.68128459831643e-03
1.34723357686569e+00	9.99997133814599e-01,-1.69297879069530e-03
1.35660432744768e+00	9.99997093804258e-01,-1.70475432121095e-03
1.36604025675440e+00	9.99997053235397e-01,-1.71661175558535e-03
1.37554181813975e+00	9.99997012100219e-01,-1.72855166347478e-03
1.38510946811093e+00	9.99996970390819e-01,-1.74057461849716e-03
1.39474366635041e+00	9.99996928099181e-01,-1.75268119825959e-03
1.40444487573800e+00	9.99996885217177e-01,-1.76487198438607e-03
1.41421356237310e+00	9.99996841736566e-01,-1.77714756254546e-03
1.42405019559708e+00	9.99996797648993e-01,-1.78950852247958e-03
1.43395524801583e+00	9.99996752945984e-01,-1.80195545803152e-03
1.44392919552250e+00	9.99996707618948e-01,-1.81448896717416e-03
1.45397251732032e+00	9.99996661659175e-01,-1.82710965203888e-03
1.46408569594563e+00	9.99996615057831e-01,-1.83981811894446e-03
1.47426921729111e+00	9.99996567805962e-01,-1.85261497842622e-03
1.48452357062906e+00	9.99996519894485e-01,-1.86550084526528e-03
1.49484924863494e+00	9.99996471314194e-01,-1.87847633851812e-03
1.50524674741107e+00	9.99996422055752e-01,-1.89154208154630e-03
1.51571656651041e+00	9.99996372109693e-01,-1.90469870204635e-03
1.52625920896057e+00	9.99996321466418e-01,-1.91794683207993e-03
1.53687518128802e+00	9.99996270116194e-01,-1.93128710810419e-03
1.54756499354240e+00	9.99996218049153e-01,-1.94472017100230e-03
1.55832915932101e+00	9.99996165255289e-01,-1.95824666611421e-03
1.56916819579351e+00	9.99996111724456e-01,-1.97186724326767e-03
1.58008262372676e+00	9.99996057446366e-01,-1.98558255680937e-03
1.59107296750985e+00	9.99996002410589e-01,-1.99939326563640e-03
1.60213975517925e+00	9.99995946606546e-01,-2.01330003322786e-03
1.61328351844426e+00	9.99995890023515e-01,-2.02730352767672e-03
1.62450479271248e+00	9.99995832650620e-01,-2.04140442172187e-03
1.63580411711557e+00	9.99995774476837e-01,-2.05560339278043e-03
1.64718203453516e+00	9.99995715490984e-01,-2.06990112298027e-03
1.65863909162889e+00	9.99995655681727e-01,-2.08429829919275e-03
1.67017583885675e+00	9.99995595037571e-01,-2.09879561306567e-03
1.68179283050744e+00	9.99995533546861e-01,-2.11339376105650e-03
1.69349062472506e+00	9.99995471197782e-01,-2.12809344446582e-03
1.70526978353592e+00	9.99995407978349e-01,-2.14289536947093e-03
1.71713087287552e+00	9.99995343876414e-01,-2.15780024715978e-03
1.72907446261574e+00	9.99995278879658e-01,-2.17280879356511e-03
1.74110112659226e+00	9.99995212975589e-01,-2.18792172969879e-03
1.75321144263208e+00	9.99995146151543e-01,-2.20313978158647e-03
1.76540599258132e+00	9.99995078394677e-01,-2.21846368030236e-03
1.77768536233315e+00	9.99995009691970e-01,-2.23389416200437e-03
1.79005014185596e+00	9.99994940030218e-01,-2.24943196796944e-03
1.80250092522167e+00	9.99994869396035e-01,-2.26507784462909e-03
1.81503831063433e+00	9.99994797775845e-01,-2.28083254360526e-03
1.82766290045881e+00	9.99994725155885e-01,-2.29669682174639e-03
1.84037530124976e+00	9.99994651522199e-01,-2.31267144116372e-03
1.85317612378076e+00	9.99994576860636e-01,-2.32875716926789e-03
1.86606598307363e+00	9.99994501156848e-01,-2.34495477880574e-03
1.87904549842804e+00	9.99994424396286e-01,-2.36126504789742e-03
1.89211529345121e+00	9.99994346564199e-01,-2.37768876007373e-03
1.90527599608789e+00	9.99994267645628e-01,-2.39422670431369e-03
1.91852823865054e+00	9.99994187625408e-01,-2.41087967508243e-03
1.93187265784971e+00	9.99994106488161e-01,-2.42764847236932e-03
1.94530989482459e+00	9.99994024218293e-01,-2.44453390172631e-03
1.95884059517387e+00	9.99993940799995e-01,-2.46153677430666e-03
1.97246540898673e+00	9.99993856217234e-01,-2.47865790690379e-03
1.98618499087409e+00	9.99993770453757e-01,-2.49589812199051e-03
2.00000000000002e+00	9.99993683493082e-01,-2.51325824775847e-03
2.01391110011345e+00	9.99993595318496e-01,-2.53073911815791e-03
2.02791895958007e+00	9.99993505913054e-01,-2.54834157293767e-03
2.04202425141440e+00	9.99993415259576e-01,-2.56606645768548e-03
2.05622765331215e+00	9.99993323340639e-01,-2.58391462386850e-03
2.07052984768277e+00	9.99993230138578e-01,-2.60188692887424e-03
2.08493152168226e+00	9.99993135635483e-01,-2.61998423605163e-03
2.09943336724615e+00	9.99993039813193e-01,-2.63820741475247e-03
2.11403608112278e+00	9.99992942653291e-01,-2.65655734037311e-03
2.12874036490674e+00	9.99992844137107e-01,-2.67503489439651e-03
2.14354692507260e+00	9.99992744245709e-01,-2.69364096443444e-03
2.15845647300887e+00	9.99992642959899e-01,-2.71237644427012e-03
2.17346972505214e+00	9.99992540260212e-01,-2.73124223390109e-03
2.18858740252150e+00	9.99992436126913e-01,-2.75023923958237e-03
2.20381023175324e+00	9.99992330539989e-01,-2.76936837386991e-03
2.21913894413571e+00	9.99992223479150e-01,-2.78863055566440e-03
2.23457427614446e+00	9.99992114923820e-01,-2.80802671025535e-03
2.25011696937764e+00	9.99992004853138e-01,-2.82755776936544e-03
2.26576777059162e+00	9.99991893245952e-01,-2.84722467119521e-03
2.28152743173687e+00	9.99991780080813e-01,-2.86702836046811e-03
2.29739670999409e+00	9.99991665335974e-01,-2.88696978847573e-03
2.31337636781060e+00	9.99991548989383e-01,-2.90704991312350e-03
2.32946717293693e+00	9.99991431018682e-01,-2.92726969897659e-03
2.34566989846378e+00	9.99991311401200e-01,-2.94763011730619e-03
2.36198532285908e+00	9.99991190113949e-01,-2.96813214613604e-03
2.37841423000546e+00	9.99991067133621e-01,-2.98877677028942e-03
2.39495740923788e+00	9.99990942436583e-01,-3.00956498143628e-03
2.41161565538154e+00	9.99990815998871e-01,-3.03049777814089e-03
2.42838976879012e+00	9.99990687796187e-01,-3.05157616590962e-03
2.44528055538416e+00	9.99990557803893e-01,-3.07280115723926e-03
2.46228882668986e+00	9.99990425997009e-01,-3.09417377166547e-03
2.47941539987800e+00	9.99990292350205e-01,-3.11569503581175e-03
2.49666109780325e+00	9.99990156837798e-01,-3.13736598343861e-03
2.51402674904368e+00	9.99990019433746e-01,-3.15918765549314e-03
2.53151318794059e+00	9.99989880111643e-01,-3.18116110015895e-03
2.54912125463855e+00	9.99989738844715e-01,-3.20328737290639e-03
2.56685179512583e+00	9.99989595605816e-01,-3.22556753654314e-03
2.58470566127501e+00	9.99989450367418e-01,-3.24800266126522e-03
2.60268371088389e+00	9.99989303101610e-01,-3.27059382470821e-03
2.62078680771675e+00	9.99989153780093e-01,-3.29334211199899e-03
2.63901582154582e+00	9.99989002374170e-01,-3.31624861580770e-03
2.65737162819305e+00	9.99988848854747e-01,-3.33931443640013e-03
2.67585510957225e+00	9.99988693192320e-01,-3.36254068169047e-03
2.69446715373141e+00	9.99988535356976e-01,-3.38592846729441e-03
2.71320865489537e+00	9.99988375318384e-01,-3.40947891658260e-03
2.73208051350882e+00	9.99988213045789e-01,-3.43319316073449e-03
2.75108363627952e+00	9.99988048508006e-01,-3.45707233879254e-03
2.77021893622188e+00	9.99987881673417e-01,-3.48111759771685e-03
2.78948733270084e+00	9.99987712509961e-01,-3.50533009244005e-03
2.80888975147603e+00	9.99987540985129e-01,-3.52971098592272e-03
2.82842712474622e+00	9.99987367065960e-01,-3.55426144920905e-03
2.84810039119418e+00	9.99987190719031e-01,-3.57898266148300e-03
2.86791049603169e+00	9.99987011910455e-01,-3.60387581012480e-03
2.88785839104502e+00	9.99986830605869e-01,-3.62894209076782e-03
2.90794503464065e+00	9.99986646770433e-01,-3.65418270735584e-03
2.92817139189128e+00	9.99986460368818e-01,-3.67959887220080e-03
2.94853843458224e+00	9.99986271365205e-01,-3.70519180604078e-03
2.96904714125813e+00	9.99986079723273e-01,-3.73096273809858e-03
2.98969849726991e+00	9.99985885406194e-01,-3.75691290614054e-03
3.01049349482217e+00	9.99985688376627e-01,-3.78304355653583e-03
3.03143313302083e+00	9.99985488596709e-01,-3.80935594431620e-03
3.05251841792115e+00	9.99985286028048e-01,-3.83585133323605e-03
3.07375036257606e+00	9.99985080631719e-01,-3.86253099583298e-03
3.09512998708482e+00	9.99984872368249e-01,-3.88939621348872e-03
3.11665831864204e+00	9.99984661197619e-01,-3.91644827649051e-03
3.13833639158704e+00	9.99984447079247e-01,-3.94368848409291e-03
3.16016524745355e+00	9.99984229971988e-01,-3.97111814457995e-03
3.18214593501971e+00	9.99984009834121e-01,-3.99873857532786e-03
3.20427951035853e+00	9.99983786623342e-01,-4.02655110286811e-03
3.22656703688855e+00	9.99983560296759e-01,-4.05455706295091e-03
3.24900958542498e+00	9.99983330810880e-01,-4.08275780060921e-03
3.27160823423117e+00	9.99983098121604e-01,-4.11115467022303e-03
3.29436406907033e+00	9.99982862184218e-01,-4.13974903558437e-03
3.31727818325781e+00	9.99982622953382e-01,-4.16854226996245e-03
3.34035167771352e+00	9.99982380383125e-01,-4.19753575616946e-03
3.36358566101490e+00	9.99982134426833e-01,-4.22673088662674e-03
3.38698124945015e+00	9.99981885037244e-01,-4.25612906343144e-03
3.41053956707187e+00	9.99981632166432e-01,-4.28573169842363e-03
3.43426174575106e+00	9.99981375765806e-01,-4.31554021325386e-03
3.45814892523151e+00	9.99981115786094e-01,-4.34555603945120e-03
3.48220225318454e+00	9.99980852177340e-01,-4.37578061849171e-03
3.50642288526419e+00	9.99980584888886e-01,-4.40621540186748e-03
3.53081198516267e+00	9.99980313869370e-01,-4.43686185115603e-03
3.55537072466633e+00	9.99980039066713e-01,-4.46772143809026e-03
3.58010028371194e+00	9.99979760428108e-01,-4.49879564462886e-03
3.60500185044337e+00	9.99979477900011e-01,-4.53008596302719e-03
3.63007662126869e+00	9.99979191428132e-01,-4.56159389590870e-03
3.65532580091765e+00	9.99978900957422e-01,-4.59332095633677e-03
3.68075060249955e+00	9.99978606432065e-01,-4.62526866788709e-03
3.70635224756154e+00	9.99978307795464e-01,-4.65743856472056e-03
3.73213196614728e+00	9.99978004990234e-01,-4.68983219165662e-03
3.75809099685610e+00	9.99977697958187e-01,-4.72245110424713e-03
3.78423058690244e+00	9.99977386640325e-01,-4.75529686885080e-03
3.81055199217580e+00	9.99977070976826e-01,-4.78837106270802e-03
3.83705647730111e+00	9.99976750907032e-01,-4.82167527401634e-03
3.86374531569944e+00	9.99976426369439e-01,-4.85521110200633e-03
3.89061978964920e+00	9.99976097301685e-01,-4.88898015701810e-03
3.91768119034776e+00	9.99975763640538e-01,-4.92298406057823e-03
3.94493081797349e+00	9.99975425321882e-01,-4.95722444547728e-03
3.97236998174820e+00	9.99975082280708e-01,-4.99170295584788e-03
4.00000000000006e+00	9.99974734451097e-01,-5.02642124724323e-03
4.02782220022694e+00	9.99974381766213e-01,-5.06138098671629e-03
4.05583791916018e+00	9.99974024158286e-01,-5.09658385289938e-03
4.08404850282883e+00	9.99973661558599e-01,-5.13203153608445e-03
4.11245530662433e+00	9.99973293897478e-01,-5.16772573830376e-03
4.14105969536557e+00	9.99972921104274e-01,-5.20366817341127e-03
4.16986304336455e+00	9.99972543107356e-01,-5.23986056716445e-03
4.19886673449233e+00	9.99972159834089e-01,-5.27630465730677e-03
4.22807216224559e+00	9.99971771210826e-01,-5.31300219365063e-03
4.25748072981351e+00	9.99971377162893e-01,-5.34995493816100e-03
4.28709385014524e+00	9.99970977614573e-01,-5.38716466503951e-03
4.31691294601778e+00	9.99970572489092e-01,-5.42463316080918e-03
4.34693945010430e+00	9.99970161708606e-01,-5.46236222439976e-03
4.37717480504303e+00	9.99969745194182e-01,-5.50035366723355e-03
4.40762046350651e+00	9.99969322865788e-01,-5.53860931331192e-03
4.43827788827145e+00	9.99968894642273e-01,-5.57713099930234e-03
4.46914855228895e+00	9.99968460441356e-01,-5.61592057462609e-03
4.50023393875531e+00	9.99968020179604e-01,-5.65497990154648e-03
4.53153554118327e+00	9.99967573772423e-01,-5.69431085525774e-03
4.56305486347377e+00	9.99967121134038e-01,-5.73391532397449e-03
4.59479341998822e+00	9.99966662177474e-01,-5.77379520902183e-03
4.62675273562123e+00	9.99966196814545e-01,-5.81395242492604e-03
4.65893434587390e+00	9.99965724955835e-01,-5.85438889950591e-03
4.69133979692760e+00	9.99965246510677e-01,-5.89510657396470e-03
4.72397064571820e+00	9.99964761387140e-01,-5.93610740298271e-03
4.75682846001097e+00	9.99964269492013e-01,-5.97739335481049e-03
4.78991481847580e+00	9.99963770730779e-01,-6.01896641136269e-03
4.82323131076313e+00	9.99963265007606e-01,-6.06082856831258e-03
4.85677953758027e+00	9.99962752225323e-01,-6.10298183518714e-03
4.89056111076836e+00	9.99962232285402e-01,-6.14542823546288e-03
4.92457765337975e+00	9.99961705087944e-01,-6.18816980666228e-03
4.95883079975604e+00	9.99961170531650e-01,-6.23120860045088e-03
4.99332219560654e+00	9.99960628513812e-01,-6.27454668273505e-03
5.02805349808740e+00	9.99960078930287e-01,-6.31818613376039e-03
5.06302637588121e+00	9.99959521675479e-01,-6.36212904821091e-03
5.09824250927714e+00	9.99958956642318e-01,-6.40637753530872e-03
5.13370359025171e+00	9.99958383722240e-01,-6.45093371891454e-03
5.16941132255006e+00	9.99957802805165e-01,-6.49579973762881e-03
5.20536742176783e+00	9.99957213779480e-01,-6.54097774489355e-03
5.24157361543355e+00	9.99956616532011e-01,-6.58646990909489e-03
5.27803164309168e+00	9.99956010948007e-01,-6.63227841366627e-03
5.31474325638615e+00	9.99955396911114e-01,-6.67840545719237e-03
5.35171021914455e+00	9.99954774303355e-01,-6.72485325351376e-03
5.38893430746286e+00	9.99954143005107e-01,-6.77162403183223e-03
5.42641730979079e+00	9.99953502895079e-01,-6.81872003681689e-03
5.46416102701769e+00	9.99952853850284e-01,-6.86614352871088e-03
5.50216727255908e+00	9.99952195746021e-01,-6.91389678343898e-03
5.54043787244381e+00	9.99951528455850e-01,-6.96198209271577e-03
5.57897466540173e+00	9.99950851851565e-01,-7.01040176415462e-03
5.61777950295210e+00	9.99950165803170e-01,-7.05915812137746e-03
5.65685424949249e+00	9.99949470178858e-01,-7.10825350412517e-03
5.69620078238840e+00	9.99948764844981e-01,-7.15769026836886e-03
5.73582099206342e+00	9.99948049666026e-01,-7.20747078642176e-03
5.77571678209010e+00	9.99947324504589e-01,-7.25759744705202e-03
5.81589006928136e+00	9.99946589221349e-01,-7.30807265559615e-03
5.85634278378262e+00	9.99945843675042e-01,-7.35889883407330e-03
5.89707686916452e+00	9.99945087722432e-01,-7.41007842130028e-03
5.93809428251631e+00	9.99944321218283e-01,-7.46161387300740e-03
5.97939699453987e+00	9.99943544015336e-01,-7.51350766195501e-03
6.02098698964439e+00	9.99942755964273e-01,-7.56576227805095e-03
6.06286626604171e+00	9.99941956913695e-01,-7.61838022846869e-03
6.10503683584236e+00	9.99941146710090e-01,-7.67136403776631e-03
6.14750072515217e+00	9.99940325197806e-01,-7.72471624800630e-03
6.19025997416968e+00	9.99939492219015e-01,-7.77843941887613e-03
6.23331663728413e+00	9.99938647613691e-01,-7.83253612780967e-03
6.27667278317413e+00	9.99937791219573e-01,-7.88700897010941e-03
6.32033049490715e+00	9.99936922872136e-01,-7.94186055906951e-03
6.36429187003948e+00	9.99936042404561e-01,-7.99709352609968e-03
6.40855902071711e+00	9.99935149647699e-01,-8.05271052084991e-03
6.45313407377714e+00	9.99934244430044e-01,-8.10871421133600e-03
6.49801917085002e+00	9.99933326577694e-01,-8.16510728406596e-03
6.54321646846239e+00	9.99932395914324e-01,-8.22189244416730e-03
6.58872813814072e+00	9.99931452261146e-01,-8.27907241551510e-03
6.63455636651567e+00	9.99930495436879e-01,-8.33664994086099e-03
6.68070335542710e+00	9.99929525257713e-01,-8.39462778196300e-03
6.72717132202986e+00	9.99928541537272e-01,-8.45300871971626e-03
6.77396249890036e+00	9.99927544086583e-01,-8.51179555428457e-03
6.82107913414380e+00	9.99926532714032e-01,-8.57099110523293e-03
6.86852349150218e+00	9.99925507225335e-01,-8.63059821166080e-03
6.91629785046307e+00	9.99924467423498e-01,-8.69061973233647e-03
6.96440450636914e+00	9.99923413108776e-01,-8.75105854583211e-03
7.01284577052843e+00	9.99922344078638e-01,-8.81191755065990e-03
7.06162397032539e+00	9.99921260127730e-01,-8.87319966540898e-03
7.11074144933272e+00	9.99920161047831e-01,-8.93490782888330e-03
7.16020056742394e+00	9.99919046627815e-01,-8.99704500024049e-03
7.21000370088680e+00	9.99917916653612e-01,-9.05961415913156e-03
7.26015324253745e+00	9.99916770908164e-01,-9.12261830584156e-03
7.31065160183536e+00	9.99915609171387e-01,-9.18606046143123e-03
7.36150120499916e+00	9.99914431220125e-01,-9.24994366787951e-03
7.41270449512313e+00	9.99913236828110e-01,-9.31427098822706e-03
7.46426393229462e+00	9.99912025765917e-01,-9.37904550672075e-03
7.51618199371226e+00	9.99910797800921e-01,-9.44427032895902e-03
7.56846117380494e+00	9.99909552697252e-01,-9.50994858203834e-03
7.62110398435167e+00	9.99908290215750e-01,-9.57608341470052e-03
7.67411295460229e+00	9.99907010113918e-01,-9.64267799748107e-03
7.72749063139894e+00	9.99905712145877e-01,-9.70973552285856e-03
7.78123957929846e+00	9.99904396062318e-01,-9.77725920540489e-03
7.83536238069559e+00	9.99903061610454e-01,-9.84525228193664e-03
7.88986163594705e+00	9.99901708533973e-01,-9.91371801166738e-03
7.94473996349647e+00	9.99900336572987e-01,-9.98265967636101e-03
8.00000000000018e+00	9.99898945463984e-01,-1.00520805804861e-02
8.05564440045393e+00	9.99897534939775e-01,-1.01219840513712e-02
8.11167583832042e+00	9.99896104729445e-01,-1.01923734393614e-02
8.16809700565773e+00	9.99894654558301e-01,-1.02632521179755e-02
8.22491061324872e+00	9.99893184147816e-01,-1.03346234840647e-02
8.28211939073121e+00	9.99891693215582e-01,-1.04064909579721e-02
8.33972608672916e+00	9.99890181475249e-01,-1.04788579836929e-02
8.39773346898473e+00	9.99888648636475e-01,-1.05517280290367e-02
8.45614432449124e+00	9.99887094404868e-01,-1.06251045857894e-02
8.51496145962708e+00	9.99885518481929e-01,-1.06989911698777e-02
8.57418770029055e+00	9.99883920564998e-01,-1.07733913215332e-02
8.63382589203562e+00	9.99882300347192e-01,-1.08483086054590e-02
